# a Fx[N] Fy[N] Fz[N] Nx[Nm] Ny[Nm] Nz[Nm]
2 -1.82664e-15 5.50465e-29 1.04407e-13 4.17275e-36 3.45682e-23 6.68663e-37
2.0005 -2.83042e-15 5.80294e-29 1.03695e-13 6.02605e-36 3.42846e-23 -4.65522e-36
2.001 -3.82563e-15 4.57169e-29 1.03013e-13 -7.65788e-36 3.4021e-23 9.81298e-37
2.0015 -4.8141e-15 3.68982e-29 1.02361e-13 -1.84015e-36 3.37784e-23 -4.37475e-36
2.002 -5.79787e-15 5.07799e-29 1.01742e-13 -7.15673e-37 3.35588e-23 -1.26472e-35
2.0025 -6.77921e-15 2.93292e-29 1.01157e-13 -1.4421e-35 3.33645e-23 3.47912e-37
2.003 -7.76067e-15 4.48338e-29 1.00612e-13 2.13359e-37 3.31991e-23 -7.97817e-36
2.0035 -8.74508e-15 3.89331e-29 1.0011e-13 9.96033e-36 3.30675e-23 -9.72413e-36
2.004 -9.73557e-15 4.22985e-29 9.96608e-14 -2.87742e-36 3.29769e-23 1.36786e-36
2.0045 -1.07354e-14 3.37557e-29 9.92746e-14 1.17077e-36 3.29373e-23 4.17775e-36
2.005 -1.17476e-14 3.50174e-29 9.89681e-14 -9.45387e-36 3.29634e-23 4.39443e-36
2.0055 -1.27742e-14 4.24592e-29 9.87652e-14 3.4279e-36 3.3076e-23 -5.47089e-36
2.006 -1.38138e-14 4.43849e-29 9.87004e-14 -3.95018e-36 3.33056e-23 2.35629e-38
2.0065 -1.48573e-14 4.17903e-29 9.88234e-14 4.33716e-36 3.36956e-23 4.85905e-37
2.007 -1.58775e-14 4.17242e-29 9.92017e-14 1.20461e-36 3.43043e-23 -5.85382e-36
2.0075 -1.68101e-14 3.43596e-29 9.99138e-14 2.61657e-36 3.51988e-23 -5.60485e-36
2.008 -1.75228e-14 4.3186e-29 1.01008e-13 2.74327e-36 3.64175e-23 -1.76085e-36
2.0085 -1.77958e-14 2.85781e-29 1.02381e-13 4.24666e-37 3.78637e-23 4.05656e-36
2.009 -1.74087e-14 2.968e-29 1.03582e-13 -9.12498e-37 3.91354e-23 -1.60873e-35
2.0095 -1.64287e-14 3.13412e-29 1.03844e-13 5.26833e-36 3.95635e-23 -3.4275e-36
2.01 -1.53838e-14 3.65809e-29 1.02746e-13 1.23895e-37 3.87942e-23 -3.40924e-36
2.0105 -1.48248e-14 2.01983e-29 1.00723e-13 2.37679e-36 3.72245e-23 -9.66713e-38
2.011 -1.48726e-14 3.73793e-29 9.8517e-14 -8.7993e-37 3.55089e-23 -8.80125e-37
2.0115 -1.53528e-14 3.15719e-29 9.65597e-14 4.10426e-36 3.40197e-23 -1.15848e-36
2.012 -1.60668e-14 2.37496e-29 9.49534e-14 -6.00981e-38 3.28412e-23 9.9714e-37
2.0125 -1.68847e-14 2.51357e-29 9.36581e-14 -1.84569e-36 3.19345e-23 -7.52279e-38
2.013 -1.77373e-14 2.98511e-29 9.26031e-14 6.92285e-36 3.12357e-23 -7.59292e-36
2.0135 -1.85915e-14 3.07711e-29 9.17261e-14 -6.44941e-36 3.06893e-23 -7.4435e-36
2.014 -1.94326e-14 1.96074e-29 9.098e-14 -3.21942e-36 3.02537e-23 -3.74031e-37
2.0145 -2.02551e-14 2.61584e-29 9.03316e-14 7.71687e-36 2.98995e-23 -2.5233e-36
2.015 -2.10576e-14 2.0146e-29 8.97573e-14 3.30422e-36 2.96062e-23 4.20932e-36
2.0155 -2.1841e-14 3.48992e-29 8.92405e-14 -1.91469e-36 2.93592e-23 -7.82569e-36
2.016 -2.26065e-14 4.22068e-29 8.87695e-14 -1.52592e-36 2.91483e-23 -3.26651e-36
2.0165 -2.33558e-14 3.78667e-29 8.83358e-14 8.96487e-36 2.89661e-23 -9.62741e-36
2.017 -2.40907e-14 3.55683e-29 8.79332e-14 1.26133e-35 2.88073e-23 3.08793e-37
2.0175 -2.48127e-14 3.81075e-29 8.75569e-14 -2.46796e-36 2.86678e-23 1.55955e-36
2.018 -2.55232e-14 2.78609e-29 8.72036e-14 -7.47552e-36 2.85447e-23 4.99959e-36
2.0185 -2.62235e-14 2.87376e-29 8.68705e-14 -5.58886e-36 2.84357e-23 -5.09195e-37
2.019 -2.69147e-14 2.72316e-29 8.65557e-14 5.61928e-36 2.83389e-23 -9.077e-36
2.0195 -2.75979e-14 3.70728e-29 8.62574e-14 6.208e-36 2.82531e-23 -9.97433e-36
2.02 -2.82738e-14 3.68968e-29 8.59745e-14 3.86626e-36 2.81771e-23 3.63037e-37
2.0205 -2.89434e-14 4.06789e-29 8.57059e-14 -3.25107e-36 2.81102e-23 -4.79311e-36
2.021 -2.96074e-14 2.96356e-29 8.54508e-14 -3.13657e-36 2.80516e-23 -9.7787e-37
2.0215 -3.02663e-14 3.88267e-29 8.52085e-14 7.89472e-36 2.80008e-23 -8.65235e-36
2.022 -3.09208e-14 4.13092e-29 8.49785e-14 6.94492e-36 2.79573e-23 -3.91623e-36
2.0225 -3.15714e-14 3.73909e-29 8.47605e-14 3.63345e-36 2.79209e-23 4.0874e-36
2.023 -3.22186e-14 3.80233e-29 8.45539e-14 -1.29186e-36 2.78911e-23 -3.11569e-36
2.0235 -3.28629e-14 2.97649e-29 8.43587e-14 3.54457e-36 2.78679e-23 -3.73352e-36
2.024 -3.35047e-14 2.64913e-29 8.41744e-14 -1.41836e-35 2.7851e-23 -8.32571e-38
2.0245 -3.41444e-14 2.95364e-29 8.4001e-14 5.9278e-36 2.78402e-23 1.87012e-36
2.025 -3.47823e-14 3.19932e-29 8.38384e-14 -2.62211e-36 2.78355e-23 1.48124e-36
2.0255 -3.54188e-14 2.32996e-29 8.36863e-14 4.66496e-36 2.78368e-23 6.32735e-36
2.026 -3.60543e-14 3.20985e-29 8.35448e-14 -4.06915e-36 2.78441e-23 -4.0924e-36
2.0265 -3.6689e-14 4.17678e-29 8.34138e-14 4.57482e-36 2.78573e-23 -8.80585e-37
2.027 -3.73232e-14 3.56657e-29 8.32932e-14 -5.55382e-37 2.78763e-23 -4.64262e-36
2.0275 -3.79573e-14 3.65567e-29 8.31831e-14 -6.67571e-36 2.79014e-23 -9.54845e-36
2.028 -3.85915e-14 3.8899e-29 8.30836e-14 8.4571e-36 2.79323e-23 -4.48737e-36
2.0285 -3.9226e-14 3.2419e-29 8.29945e-14 -2.30451e-36 2.79693e-23 -6.09258e-36
2.029 -3.98612e-14 3.09305e-29 8.2916e-14 -1.01711e-36 2.80124e-23 -2.2258e-36
2.0295 -4.04973e-14 3.39855e-29 8.28482e-14 2.4047e-36 2.80615e-23 3.68273e-36
2.03 -4.11345e-14 3.81632e-29 8.27912e-14 -3.37311e-36 2.8117e-23 -9.37407e-36
2.0305 -4.1773e-14 3.25819e-29 8.2745e-14 3.61693e-36 2.81787e-23 -7.49248e-37
2.031 -4.24132e-14 2.65126e-29 8.27098e-14 -1.74604e-36 2.82469e-23 -1.50368e-35
2.0315 -4.30551e-14 3.3529e-29 8.26858e-14 -4.84268e-36 2.83218e-23 -5.11421e-36
2.032 -4.36992e-14 3.29235e-29 8.2673e-14 6.64577e-36 2.84033e-23 -2.09256e-36
2.0325 -4.43455e-14 2.4005e-29 8.26716e-14 1.11106e-35 2.84918e-23 2.19935e-36
2.033 -4.49942e-14 3.64863e-29 8.2682e-14 9.09798e-36 2.85873e-23 8.20219e-38
2.0335 -4.56457e-14 4.48903e-29 8.27041e-14 -3.03762e-36 2.86901e-23 -1.00544e-35
2.034 -4.63e-14 3.32281e-29 8.27384e-14 -5.69371e-36 2.88005e-23 7.2708e-37
2.0345 -4.69575e-14 4.08871e-29 8.27849e-14 -2.82561e-36 2.89185e-23 -2.15128e-36
2.035 -4.76183e-14 4.51871e-29 8.28441e-14 -4.00907e-36 2.90445e-23 6.47065e-36
2.0355 -4.82826e-14 2.76002e-29 8.2916e-14 -8.14677e-38 2.91786e-23 2.05647e-36
2.036 -4.89507e-14 4.33871e-29 8.30012e-14 -2.06572e-36 2.93213e-23 4.97244e-36
2.0365 -4.96227e-14 2.43941e-29 8.30998e-14 -3.18945e-37 2.94728e-23 -3.52205e-36
2.037 -5.02988e-14 3.14295e-29 8.32122e-14 -2.73219e-36 2.96334e-23 7.05231e-36
2.0375 -5.09792e-14 4.99423e-29 8.33388e-14 -2.31148e-36 2.98035e-23 -1.13597e-35
2.038 -5.16642e-14 2.89177e-29 8.34801e-14 2.72526e-36 2.99834e-23 4.00327e-36
2.0385 -5.23539e-14 4.10998e-29 8.36363e-14 -7.64562e-36 3.01735e-23 6.7974e-36
2.039 -5.30486e-14 3.15433e-29 8.38079e-14 9.03261e-36 3.03743e-23 6.83786e-36
2.0395 -5.37484e-14 3.43956e-29 8.39955e-14 -7.10138e-36 3.05862e-23 -1.44206e-36
2.04 -5.44536e-14 3.62421e-29 8.41996e-14 1.39463e-36 3.08097e-23 6.58877e-36
2.0405 -5.51643e-14 2.80665e-29 8.44206e-14 9.18795e-36 3.10452e-23 -4.81534e-36
2.041 -5.58808e-14 3.67591e-29 8.46593e-14 1.51586e-36 3.12935e-23 9.32568e-36
2.0415 -5.66033e-14 3.90688e-29 8.49161e-14 -6.26372e-37 3.15549e-23 1.10957e-36
2.042 -5.73319e-14 2.91274e-29 8.51919e-14 2.75343e-36 3.18303e-23 5.32812e-37
2.0425 -5.8067e-14 4.25623e-29 8.54872e-14 4.97397e-36 3.21201e-23 -4.86985e-36
2.043 -5.88086e-14 3.02668e-29 8.5803e-14 -8.0263e-36 3.24253e-23 6.85955e-36
2.0435 -5.95571e-14 4.06335e-29 8.61399e-14 4.83878e-36 3.27465e-23 3.72467e-36
2.044 -6.03126e-14 4.89309e-29 8.64989e-14 -1.11736e-36 3.30846e-23 -2.28093e-36
2.0445 -6.10755e-14 3.77721e-29 8.6881e-14 -5.46939e-37 3.34405e-23 5.94721e-36
2.045 -6.18458e-14 3.14721e-29 8.72871e-14 -1.09516e-35 3.38151e-23 -1.11022e-35
2.0455 -6.2624e-14 3.58544e-29 8.77183e-14 1.13532e-35 3.42095e-23 -4.09012e-36
2.046 -6.34101e-14 3.51911e-29 8.81759e-14 -7.6309e-36 3.46248e-23 -2.44946e-37
2.0465 -6.42045e-14 4.15177e-29 8.86611e-14 9.86095e-37 3.50622e-23 2.73524e-36
2.047 -6.50074e-14 3.45772e-29 8.91752e-14 -3.01733e-36 3.5523e-23 1.77209e-36
2.0475 -6.58192e-14 2.49109e-29 8.97198e-14 4.80726e-36 3.60085e-23 8.7321e-36
2.048 -6.664e-14 4.77401e-29 9.02964e-14 7.78809e-36 3.65204e-23 -1.02732e-35
2.0485 -6.74703e-14 3.10381e-29 9.09068e-14 -3.20245e-36 3.70601e-23 1.56341e-36
2.049 -6.83102e-14 3.13131e-29 9.15528e-14 -6.78553e-36 3.76295e-23 4.35135e-36
2.0495 -6.91602e-14 3.415e-29 9.22364e-14 -2.16754e-36 3.82305e-23 -4.23408e-37
2.05 -7.00206e-14 3.93925e-29 9.29599e-14 -2.7939e-36 3.88652e-23 -5.25125e-36
2.0505 -7.08918e-14 2.49689e-29 9.37256e-14 -3.50018e-36 3.95358e-23 -1.18099e-36
2.051 -7.17741e-14 5.29922e-29 9.45361e-14 -3.17426e-36 4.02448e-23 -1.84513e-36
2.0515 -7.26681e-14 2.93255e-29 9.53942e-14 -3.50051e-36 4.09948e-23 4.01614e-36
2.052 -7.3574e-14 5.07023e-29 9.63031e-14 -8.87847e-37 4.17887e-23 2.50762e-36
2.0525 -7.44925e-14 4.41518e-29 9.72661e-14 -4.18243e-37 4.26297e-23 -3.31469e-36
2.053 -7.54241e-14 3.46995e-29 9.82868e-14 7.50449e-36 4.35213e-23 -3.00927e-36
2.0535 -7.63692e-14 3.17274e-29 9.93694e-14 -9.17082e-36 4.44673e-23 2.8199e-36
2.054 -7.73286e-14 2.85837e-29 1.00518e-13 -1.11837e-35 4.54718e-23 7.20231e-36
2.0545 -7.83029e-14 3.10086e-29 1.01738e-13 -1.61681e-36 4.65395e-23 -2.90226e-36
2.055 -7.92929e-14 3.93112e-29 1.03034e-13 1.38665e-35 4.76753e-23 1.0945e-35
2.0555 -8.02993e-14 3.64294e-29 1.04413e-13 1.05206e-35 4.88849e-23 1.43453e-36
2.056 -8.1323e-14 5.18635e-29 1.0588e-13 -1.57576e-35 5.01743e-23 3.18399e-36
2.0565 -8.23651e-14 3.20035e-29 1.07444e-13 -2.16525e-36 5.15504e-23 2.60611e-36
2.057 -8.34265e-14 3.74942e-29 1.09112e-13 -5.17386e-37 5.30207e-23 4.01756e-36
2.0575 -8.45084e-14 4.21384e-29 1.10892e-13 -6.53435e-37 5.45935e-23 1.36234e-35
2.058 -8.56122e-14 2.53192e-29 1.12796e-13 -1.38562e-35 5.62781e-23 6.12752e-38
2.0585 -8.67393e-14 4.97103e-29 1.14833e-13 -5.13168e-36 5.80848e-23 -1.73953e-36
2.059 -8.78914e-14 3.96668e-29 1.17016e-13 1.02927e-35 6.00254e-23 2.15451e-36
2.0595 -8.90701e-14 4.72643e-29 1.1936e-13 -4.77232e-36 6.21127e-23 -4.18236e-36
2.06 -9.02775e-14 3.71771e-29 1.21878e-13 1.60441e-36 6.43613e-23 -1.74629e-36
2.0605 -9.15158e-14 5.39947e-29 1.2459e-13 -1.72235e-36 6.67877e-23 9.01884e-36
2.061 -9.27875e-14 3.14507e-29 1.27514e-13 -4.49069e-36 6.94102e-23 1.298e-37
2.0615 -9.40955e-14 5.00294e-29 1.30672e-13 1.40856e-37 7.225e-23 7.15245e-36
2.062 -9.54427e-14 2.7874e-29 1.3409e-13 -1.43452e-35 7.53308e-23 -5.02073e-36
2.0625 -9.68328e-14 4.02013e-29 1.37797e-13 -5.52843e-36 7.86795e-23 -1.39053e-35
2.063 -9.82696e-14 5.64363e-29 1.41824e-13 -3.86076e-36 8.23273e-23 1.07144e-36
2.0635 -9.97577e-14 3.73472e-29 1.4621e-13 2.01456e-36 8.63093e-23 2.2221e-37
2.064 -1.01302e-13 4.72303e-29 1.50997e-13 2.78118e-36 9.06664e-23 8.20245e-36
2.0645 -1.02909e-13 5.8083e-29 1.56235e-13 -1.576e-36 9.54453e-23 4.28133e-36
2.065 -1.04583e-13 4.73558e-29 1.6198e-13 9.12042e-36 1.007e-22 8.01579e-36
2.0655 -1.06334e-13 6.81421e-29 1.68298e-13 -1.07266e-35 1.06495e-22 3.12256e-36
2.066 -1.08169e-13 4.92764e-29 1.75268e-13 -2.56733e-35 1.12902e-22 4.36053e-36
2.0665 -1.10098e-13 5.21366e-29 1.82978e-13 -5.02788e-36 1.20008e-22 4.82329e-36
2.067 -1.12131e-13 5.08671e-29 1.91535e-13 -2.41836e-35 1.27915e-22 -3.34415e-36
2.0675 -1.14282e-13 5.39559e-29 2.01063e-13 3.14444e-35 1.36742e-22 3.59392e-36
2.068 -1.16565e-13 6.84133e-29 2.1171e-13 1.83049e-35 1.46631e-22 -2.35696e-36
2.0685 -1.18997e-13 6.22736e-29 2.23653e-13 3.59659e-36 1.57753e-22 1.01104e-35
2.069 -1.21596e-13 7.07403e-29 2.37102e-13 2.08176e-35 1.7031e-22 2.81104e-36
2.0695 -1.24386e-13 1.55814e-29 2.52309e-13 1.08019e-35 1.84547e-22 -1.4557e-36
2.07 -1.27393e-13 5.09159e-29 2.69581e-13 4.6519e-36 2.00761e-22 6.80357e-36
2.0705 -1.30646e-13 5.32451e-29 2.89289e-13 -8.39741e-36 2.19313e-22 -4.00255e-36
2.071 -1.3418e-13 7.86363e-29 3.11885e-13 1.44704e-36 2.40645e-22 4.48097e-36
2.0715 -1.38037e-13 5.53778e-29 3.37925e-13 1.53496e-35 2.65299e-22 -1.35946e-36
2.072 -1.42262e-13 8.47531e-29 3.68092e-13 1.99238e-35 2.93945e-22 3.03596e-35
2.0725 -1.46909e-13 8.65096e-29 4.03228e-13 -2.47067e-35 3.27411e-22 1.42779e-35
2.073 -1.52039e-13 3.77461e-29 4.44372e-13 -2.45375e-35 3.66724e-22 -5.54271e-36
2.0735 -1.57716e-13 5.43447e-29 4.92808e-13 6.36967e-36 4.13156e-22 3.60332e-35
2.074 -1.6401e-13 5.19672e-29 5.5011e-13 -1.54084e-35 4.68274e-22 -3.21256e-35
2.0745 -1.70986e-13 9.98303e-29 6.18186e-13 -2.53528e-36 5.33989e-22 -2.90145e-35
2.075 -1.78693e-13 1.04407e-28 6.99296e-13 6.8933e-36 6.12583e-22 -2.71823e-35
2.0755 -1.87144e-13 3.68017e-29 7.96e-13 -3.63596e-35 7.06665e-22 1.40749e-35
2.076 -1.96271e-13 1.02554e-28 9.10957e-13 -5.52692e-35 8.19e-22 -1.52184e-35
2.0765 -2.05863e-13 4.88856e-30 1.04644e-12 -6.84296e-35 9.52036e-22 -1.62812e-35
2.077 -2.15467e-13 -2.01413e-29 1.20329e-12 -2.89209e-35 1.10693e-21 5.5638e-36
2.0775 -2.24264e-13 3.34894e-29 1.37922e-12 -3.22659e-35 1.28183e-21 -7.62547e-36
2.078 -2.30966e-13 8.45237e-29 1.56616e-12 -2.47132e-35 1.46929e-21 1.46009e-35
2.0785 -2.33843e-13 1.0298e-30 1.74775e-12 -1.86183e-36 1.65364e-21 -2.94168e-35
2.079 -2.31074e-13 -1.23983e-28 1.89891e-12 1.05773e-35 1.81036e-21 -1.41428e-35
2.0795 -2.21478e-13 -4.94279e-29 1.99093e-12 -1.10404e-35 1.91081e-21 5.18789e-35
2.08 -2.05354e-13 -6.8511e-29 2.0025e-12 2.03022e-36 1.933e-21 7.11692e-35
2.0805 -1.84713e-13 3.06497e-30 1.93062e-12 6.12493e-37 1.87262e-21 6.17053e-35
2.081 -1.62526e-13 -1.6778e-28 1.79235e-12 -6.75829e-35 1.7453e-21 -3.59192e-35
2.0815 -1.4152e-13 -7.91981e-29 1.61566e-12 -5.09522e-35 1.57794e-21 4.66903e-35
2.082 -1.23395e-13 -1.02981e-28 1.42747e-12 -1.76304e-36 1.39703e-21 2.2018e-35
2.0825 -1.0876e-13 -5.67437e-29 1.24675e-12 -7.1395e-35 1.22161e-21 4.30391e-35
2.083 -9.74835e-14 -1.03736e-28 1.08366e-12 3.95903e-35 1.06214e-21 -7.03447e-36
2.0835 -8.9084e-14 -1.32671e-28 9.41828e-13 7.97342e-36 9.2264e-22 2.98546e-35
2.084 -8.29926e-14 -6.59481e-29 8.21042e-13 4.97201e-35 8.03234e-22 -1.91126e-35
2.0845 -7.86843e-14 -2.01338e-29 7.19279e-13 4.32685e-35 7.02182e-22 -3.5528e-35
2.085 -7.57246e-14 9.28614e-30 6.33903e-13 3.67648e-35 6.17058e-22 -1.75618e-35
2.0855 -7.37731e-14 -5.0195e-30 5.62284e-13 2.12815e-35 5.4538e-22 1.43823e-36
2.086 -7.25713e-14 2.49654e-29 5.02059e-13 -1.99663e-35 4.84891e-22 9.35668e-36
2.0865 -7.19258e-14 5.06921e-28 4.51213e-13 3.65111e-35 4.33652e-22 4.00884e-37
2.087 -7.1693e-14 -7.42617e-28 4.08078e-13 7.87192e-36 3.90044e-22 -4.46049e-36
2.0875 -7.17666e-14 -1.97973e-28 3.71291e-13 1.72699e-36 3.52739e-22 4.79494e-36
2.088 -7.20677e-14 -1.99399e-28 3.39747e-13 -3.46554e-36 3.20656e-22 -2.31462e-36
2.0885 -7.25379e-14 -8.90544e-29 3.12551e-13 4.57941e-35 2.92914e-22 1.95446e-36
2.089 -7.31336e-14 -6.96076e-29 2.88978e-13 -1.58783e-35 2.688e-22 -8.50462e-36
2.0895 -7.38221e-14 -3.76757e-29 2.6844e-13 7.19563e-36 2.47733e-22 -1.1015e-35
2.09 -7.45791e-14 -5.37896e-29 2.50458e-13 5.55176e-36 2.29237e-22 1.92539e-36
2.0905 -7.53861e-14 -7.35773e-29 2.34639e-13 2.63557e-35 2.12923e-22 1.00957e-35
2.091 -7.62295e-14 -7.10646e-29 2.20662e-13 -1.69975e-35 1.98469e-22 2.33674e-35
2.0915 -7.70987e-14 -4.44003e-29 2.08259e-13 1.7751e-35 1.85609e-22 -7.86584e-36
2.092 -7.7986e-14 -3.92792e-29 1.97209e-13 5.95434e-37 1.74121e-22 1.28417e-35
2.0925 -7.88854e-14 -5.83448e-29 1.87328e-13 1.79758e-35 1.63821e-22 -9.04307e-36
2.093 -7.97924e-14 -4.73828e-29 1.7846e-13 1.29614e-36 1.54552e-22 -4.91363e-36
2.0935 -8.07038e-14 -4.18096e-29 1.70476e-13 8.50488e-36 1.46184e-22 -2.67556e-36
2.094 -8.16171e-14 -6.58815e-29 1.63264e-13 -8.68499e-36 1.38604e-22 -8.13435e-36
2.0945 -8.25306e-14 -3.56982e-29 1.5673e-13 3.25656e-36 1.31718e-22 -6.15194e-37
2.095 -8.3443e-14 -3.1798e-29 1.50795e-13 -1.24355e-35 1.25444e-22 -2.43119e-36
2.0955 -8.43534e-14 -1.79589e-29 1.45389e-13 1.42089e-35 1.19712e-22 -1.16146e-35
2.096 -8.52613e-14 -3.65145e-29 1.40453e-13 8.38877e-36 1.14463e-22 1.09028e-35
2.0965 -8.61663e-14 -4.11092e-29 1.35936e-13 5.75266e-36 1.09643e-22 1.24681e-36
2.097 -8.70681e-14 -1.31808e-30 1.31793e-13 -1.0953e-35 1.05208e-22 4.94255e-36
2.0975 -8.79669e-14 -4.93262e-29 1.27986e-13 -1.89937e-36 1.01118e-22 7.59837e-36
2.098 -8.88627e-14 -7.42321e-30 1.2448e-13 6.24897e-36 9.7339e-23 -4.85013e-36
2.0985 -8.97556e-14 -3.04571e-29 1.21247e-13 2.35392e-36 9.38394e-23 2.73784e-36
2.099 -9.06458e-14 -1.60034e-29 1.1826e-13 -1.99378e-37 9.05931e-23 -8.04088e-36
2.0995 -9.15336e-14 -1.8212e-29 1.15495e-13 9.8915e-36 8.75762e-23 8.73518e-36
2.1 -9.24192e-14 1.73676e-30 1.12934e-13 1.69736e-35 8.47679e-23 -6.7696e-36
2.1005 -9.3303e-14 -3.13458e-29 1.10556e-13 4.33935e-36 8.21497e-23 -6.87425e-36
2.101 -9.41853e-14 -5.37145e-30 1.08348e-13 -2.75247e-36 7.97048e-23 5.64123e-36
2.1015 -9.50663e-14 -1.02475e-29 1.06294e-13 4.43071e-36 7.74185e-23 -2.78064e-36
2.102 -9.59464e-14 -2.4045e-29 1.04381e-13 1.29355e-35 7.52776e-23 -4.2456e-36
2.1025 -9.68259e-14 -1.47781e-29 1.02599e-13 1.78586e-35 7.32703e-23 -3.19186e-36
2.103 -9.77052e-14 -1.66027e-29 1.00937e-13 -2.23827e-37 7.13858e-23 -6.25087e-36
2.1035 -9.85845e-14 6.18569e-30 9.93847e-14 2.66007e-36 6.96145e-23 -1.65149e-36
2.104 -9.94641e-14 -1.14309e-29 9.79353e-14 -7.11863e-36 6.79479e-23 -3.50341e-36
2.1045 -1.00344e-13 -1.55858e-29 9.65806e-14 5.11523e-36 6.6378e-23 4.58338e-36
2.105 -1.01226e-13 -9.54545e-30 9.53141e-14 9.00434e-36 6.48977e-23 4.47393e-36
2.1055 -1.02108e-13 2.6016e-30 9.41295e-14 9.89496e-36 6.35007e-23 6.32396e-37
2.106 -1.02992e-13 -1.60846e-29 9.30212e-14 -4.53067e-36 6.21811e-23 -6.75071e-37
2.1065 -1.03878e-13 -1.30857e-29 9.19842e-14 9.18986e-36 6.09335e-23 2.30176e-36
2.107 -1.04766e-13 -2.59818e-29 9.10139e-14 7.02283e-36 5.97532e-23 2.73028e-37
2.1075 -1.05656e-13 -1.20277e-29 9.01061e-14 -2.21057e-36 5.86356e-23 -1.59188e-36
2.108 -1.06549e-13 -1.36451e-29 8.92569e-14 5.83974e-36 5.75769e-23 -2.12175e-36
2.1085 -1.07444e-13 -1.68676e-29 8.84629e-14 -7.80085e-36 5.65732e-23 4.19687e-36
2.109 -1.08343e-13 -2.13522e-29 8.77208e-14 -5.13946e-40 5.56213e-23 3.81991e-36
2.1095 -1.09245e-13 -5.94305e-30 8.70278e-14 1.58704e-35 5.47181e-23 -2.88355e-36
2.11 -1.1015e-13 -1.32002e-29 8.63812e-14 -8.15587e-36 5.38608e-23 4.09164e-36
2.1105 -1.11059e-13 -1.2821e-29 8.57785e-14 5.73715e-37 5.30468e-23 -3.13518e-36
2.111 -1.11973e-13 -1.37646e-29 8.52176e-14 -8.20668e-36 5.22739e-23 2.57463e-36
2.1115 -1.1289e-13 9.65127e-30 8.46964e-14 5.03056e-36 5.15399e-23 2.63328e-36
2.112 -1.13812e-13 -7.55712e-30 8.4213e-14 2.28627e-36 5.08429e-23 -1.02074e-36
2.1125 -1.14739e-13 -3.89012e-30 8.37658e-14 -7.17297e-37 5.01813e-23 1.63119e-36
2.113 -1.15671e-13 -2.08505e-29 8.33534e-14 4.35309e-36 4.95536e-23 -1.07252e-36
2.1135 -1.16608e-13 -7.8053e-30 8.29743e-14 -3.87765e-37 4.89585e-23 -2.24218e-36
2.114 -1.17551e-13 -5.44167e-30 8.26275e-14 9.37335e-36 4.83949e-23 2.69391e-36
2.1145 -1.185e-13 -1.98873e-29 8.23119e-14 -7.09244e-36 4.78619e-23 7.83606e-36
2.115 -1.19455e-13 -7.10565e-30 8.20266e-14 -7.01782e-37 4.73589e-23 -2.6714e-36
2.1155 -1.20416e-13 5.43421e-30 8.1771e-14 6.76822e-36 4.68855e-23 3.20972e-36
2.116 -1.21385e-13 -9.06476e-30 8.15447e-14 7.4934e-37 4.64416e-23 -5.7118e-36
2.1165 -1.22362e-13 5.74042e-30 8.13474e-14 5.25092e-36 4.60275e-23 -1.2207e-36
2.117 -1.23346e-13 -4.63204e-30 8.11792e-14 3.24683e-36 4.5644e-23 -4.2719e-36
2.1175 -1.2434e-13 8.07424e-30 8.10404e-14 -6.17207e-36 4.52922e-23 -4.30115e-36
2.118 -1.25343e-13 -4.52825e-30 8.09319e-14 -1.59231e-36 4.49742e-23 -4.38178e-36
2.1185 -1.26356e-13 -5.76889e-30 8.0855e-14 3.8395e-36 4.4693e-23 3.70956e-36
2.119 -1.27381e-13 -1.9233e-30 8.08118e-14 7.67798e-36 4.44528e-23 5.44428e-36
2.1195 -1.28419e-13 5.95843e-30 8.08055e-14 1.12324e-35 4.42598e-23 -6.07791e-36
2.12 -1.29472e-13 1.40251e-29 8.08406e-14 -6.08363e-37 4.41226e-23 -2.69422e-36
2.1205 -1.30542e-13 1.28104e-29 8.09239e-14 2.79402e-37 4.40539e-23 -1.91343e-36
2.121 -1.31631e-13 1.49849e-29 8.10653e-14 -3.84067e-36 4.40719e-23 -4.56625e-36
2.1215 -1.32743e-13 -1.79568e-30 8.12797e-14 3.19036e-36 4.42041e-23 -2.33624e-36
2.122 -1.33883e-13 6.04512e-31 8.15897e-14 -2.69637e-36 4.44917e-23 1.19813e-36
2.1225 -1.35057e-13 1.48832e-29 8.20308e-14 9.98093e-36 4.49994e-23 6.18636e-36
2.123 -1.3627e-13 2.87753e-30 8.26598e-14 2.73773e-36 4.58307e-23 -3.83747e-36
2.1235 -1.37531e-13 2.25156e-30 8.35702e-14 -3.89583e-36 4.71557e-23 -2.3681e-36
2.124 -1.38842e-13 2.33619e-29 8.49178e-14 -8.79149e-36 4.92575e-23 -4.08278e-36
